# time = 2.54
# Grid points = 1730
# Domain Size = 4
# Pressure (Pa) = 100000
#             1_pos             2_posf             3_rho             4_dvisc             5_uvel             6_vvel             7_wvel
  -1.9617190077e+00  -2.0000000000e+00   1.1960000000e+00   1.8346640000e-05   1.0020607338e-01   2.0009045038e-06   2.0009045038e-06
  -1.9030328487e+00  -1.9234380154e+00   1.1960000000e+00   1.8346640000e-05   1.0020607338e-01   2.0009045038e-06   2.0009045038e-06
  -1.8617624340e+00  -1.8826276820e+00   1.1960000000e+00   1.8346640000e-05   1.0020607338e-01   2.0009045038e-06   2.0009045038e-06
  -1.8058554412e+00  -1.8408971860e+00   1.1960000000e+00   1.8346640000e-05   1.0020607338e-01   2.0009045038e-06   2.0009045038e-06
  -1.7356322647e+00  -1.7708136964e+00   1.1960000000e+00   1.8346640000e-05   1.0020607338e-01   2.0009045066e-06   2.0009045066e-06
  -1.6651116225e+00  -1.7004508331e+00   1.1960000000e+00   1.8346640000e-05   1.0020607342e-01   2.0009046896e-06   2.0009046896e-06
  -1.5942539600e+00  -1.6297724119e+00   1.1960000000e+00   1.8346640000e-05   1.0020607418e-01   2.0009082868e-06   2.0009082868e-06
  -1.5230121323e+00  -1.5587355081e+00   1.1960000000e+00   1.8346640000e-05   1.0020608024e-01   2.0009368809e-06   2.0009368809e-06
  -1.4513294242e+00  -1.4872887564e+00   1.1960000000e+00   1.8346640000e-05   1.0020611216e-01   2.0010861041e-06   2.0010861041e-06
  -1.3791368950e+00  -1.4153700919e+00   1.1960000000e+00   1.8346640000e-05   1.0020622718e-01   2.0016183105e-06   2.0016183105e-06
  -1.3063497513e+00  -1.3429036980e+00   1.1960000000e+00   1.8346640000e-05   1.0020655052e-01   2.0030974127e-06   2.0030974127e-06
  -1.2328622871e+00  -1.2697958045e+00   1.1960000000e+00   1.8346640000e-05   1.0020752524e-01   2.0074727893e-06   2.0074727893e-06
  -1.1585406632e+00  -1.1959287697e+00   1.1960000000e+00   1.8346640000e-05   1.0020943964e-01   2.0158837919e-06   2.0158837919e-06
  -1.0832123089e+00  -1.1211525567e+00   1.1960000000e+00   1.8346640000e-05   1.0021276753e-01   2.0301905686e-06   2.0301905686e-06
  -1.0066498480e+00  -1.0452720611e+00   1.1960000000e+00   1.8346640000e-05   1.0021787256e-01   2.0516690086e-06   2.0516690086e-06
  -9.4641616030e-01  -9.6802763491e-01   1.1960000000e+00   1.8346640000e-05   1.0022518013e-01   2.0821166330e-06   2.0821166330e-06
  -9.1399854808e-01  -9.2480468568e-01   1.1960000000e+00   1.8346640000e-05   1.0030979403e-01   2.7298958537e-06   2.7298958537e-06
  -8.9786109490e-01  -9.0319241047e-01   1.1960000000e+00   1.8346640000e-05   1.1236718449e-01   9.6696806824e-05   9.6696806824e-05
  -8.8996521993e-01  -8.9252977933e-01   1.1960000000e+00   1.8346640000e-05   1.4441983520e-01   3.4661975645e-04   3.4661975645e-04
  -8.8466406782e-01  -8.8740066053e-01   1.1960000000e+00   1.8346640000e-05   1.8821206792e-01   6.9007243592e-04   6.9007243592e-04
  -8.8060898770e-01  -8.8192747510e-01   1.1960000000e+00   1.8346640000e-05   1.8149393118e-01   7.6423585766e-04   7.6423585766e-04
  -8.7876813538e-01  -8.7929050029e-01   1.1960000000e+00   1.8346640000e-05   2.2708460633e-01   2.2489027456e-03   2.2489027456e-03
  -8.7804288909e-01  -8.7824577046e-01   1.1960000000e+00   1.8346640000e-05   2.9528537366e-01   4.0036053560e-03   4.0036053560e-03
  -8.7762312583e-01  -8.7784000771e-01   1.1960000000e+00   1.8346640000e-05   3.4342831851e-01   5.0774896022e-03   5.0774896022e-03
  -8.7709873107e-01  -8.7740624394e-01   1.1960000000e+00   1.8346640000e-05   4.0762098534e-01   6.2263198614e-03   6.2263198614e-03
  -8.7618042128e-01  -8.7679121820e-01   1.1960000000e+00   1.8346640000e-05   4.8737307422e-01   6.8549750809e-03   6.8549750809e-03
  -8.7534901213e-01  -8.7556962436e-01   1.1960000000e+00   1.8346640000e-05   3.8423166845e-01   5.5336642104e-03   5.5336642104e-03
  -8.7480455581e-01  -8.7512839991e-01   1.1960000000e+00   1.8346640000e-05   3.1173865379e-01   4.3416596784e-03   4.3416596784e-03
  -8.7411340343e-01  -8.7448071171e-01   1.1960000000e+00   1.8346640000e-05   2.4515189119e-01   2.8162991426e-03   2.8162991426e-03
  -8.7278004075e-01  -8.7374609515e-01   1.1960000000e+00   1.8346640000e-05   1.8768961206e-01   1.0386090367e-03   1.0386090367e-03
  -8.6973878335e-01  -8.7181398636e-01   1.1960000000e+00   1.8346640000e-05   1.8140283227e-01   6.4693298020e-04   6.4693298020e-04
  -8.6360832077e-01  -8.6766358034e-01   1.1960000000e+00   1.8346640000e-05   1.6608662389e-01   5.1560518919e-04   5.1560518919e-04
  -8.5089981055e-01  -8.5955306120e-01   1.1960000000e+00   1.8346640000e-05   1.0485862476e-01   3.8163576851e-05   3.8163576851e-05
  -8.3785078670e-01  -8.4224655990e-01   1.1960000000e+00   1.8346640000e-05   1.0029016917e-01   2.5728569068e-06   2.5728569068e-06
  -8.2826657324e-01  -8.3345501351e-01   1.1960000000e+00   1.8346640000e-05   1.0065112800e-01   5.3840725989e-06   5.3840725989e-06
  -8.2056558688e-01  -8.2307813297e-01   1.1960000000e+00   1.8346640000e-05   1.1161726743e-01   9.0917999067e-05   9.0917999067e-05
  -8.1676298870e-01  -8.1805304079e-01   1.1960000000e+00   1.8346640000e-05   1.5486247392e-01   4.3287044793e-04   4.3287044793e-04
  -8.1483023730e-01  -8.1547293661e-01   1.1960000000e+00   1.8346640000e-05   1.8550751202e-01   7.8491336434e-04   7.8491336434e-04
  -8.1363877193e-01  -8.1418753800e-01   1.1960000000e+00   1.8346640000e-05   2.2570348904e-01   1.7370251450e-03   1.7370251450e-03
  -8.1262652393e-01  -8.1309000586e-01   1.1960000000e+00   1.8346640000e-05   3.5193931223e-01   4.2936323945e-03   4.2936323945e-03
  -8.1110940439e-01  -8.1216304199e-01   1.1960000000e+00   1.8346640000e-05   4.6083950764e-01   5.6223251109e-03   5.6223251109e-03
  -8.0931712867e-01  -8.1005576679e-01   1.1960000000e+00   1.8346640000e-05   2.6021085823e-01   2.3430468348e-03   2.3430468348e-03
  -8.0730886434e-01  -8.0857849056e-01   1.1960000000e+00   1.8346640000e-05   1.7918828273e-01   7.2325811799e-04   7.2325811799e-04
  -8.0473493941e-01  -8.0603923812e-01   1.1960000000e+00   1.8346640000e-05   1.4089641264e-01   3.2409061971e-04   3.2409061971e-04
  -8.0084876342e-01  -8.0343064069e-01   1.1960000000e+00   1.8346640000e-05   1.0490867365e-01   3.8629981825e-05   3.8629981825e-05
  -7.9568902345e-01  -7.9826688616e-01   1.1960000000e+00   1.8346640000e-05   1.1438804878e-01   1.1254337280e-04   1.1254337280e-04
  -7.9183575615e-01  -7.9311116074e-01   1.1960000000e+00   1.8346640000e-05   1.4334510117e-01   3.4474010238e-04   3.4474010238e-04
  -7.8928620644e-01  -7.9056035157e-01   1.1960000000e+00   1.8346640000e-05   1.8296187629e-01   7.9614902681e-04   7.9614902681e-04
  -7.8749303289e-01  -7.8801206131e-01   1.1960000000e+00   1.8346640000e-05   2.8674606738e-01   3.0475718615e-03   3.0475718615e-03
  -7.8639003506e-01  -7.8697400446e-01   1.1960000000e+00   1.8346640000e-05   4.7330189608e-01   5.2651526077e-03   5.2651526077e-03
  -7.8518426841e-01  -7.8580606566e-01   1.1960000000e+00   1.8346640000e-05   6.4603610072e-01   3.3702098098e-03   3.3702098098e-03
  -7.8389601800e-01  -7.8456247117e-01   1.1960000000e+00   1.8346640000e-05   7.2366896659e-01   1.5111248553e-03   1.5111248553e-03
  -7.8269025567e-01  -7.8322956483e-01   1.1960000000e+00   1.8346640000e-05   5.3777537404e-01   5.8063995056e-03   5.8063995056e-03
  -7.8186531911e-01  -7.8215094651e-01   1.1960000000e+00   1.8346640000e-05   4.5687880400e-01   5.2894312325e-03   5.2894312325e-03
  -7.8139076795e-01  -7.8157969171e-01   1.1960000000e+00   1.8346640000e-05   4.2989570609e-01   5.0020581178e-03   5.0020581178e-03
  -7.8103512673e-01  -7.8120184419e-01   1.1960000000e+00   1.8346640000e-05   4.2614193331e-01   4.9320594317e-03   4.9320594317e-03
  -7.8071056628e-01  -7.8086840927e-01   1.1960000000e+00   1.8346640000e-05   4.3687870022e-01   5.0123529900e-03   5.0123529900e-03
  -7.8021554145e-01  -7.8055272328e-01   1.1960000000e+00   1.8346640000e-05   4.6957995594e-01   5.3118860924e-03   5.3118860924e-03
  -7.7938497889e-01  -7.7987835961e-01   1.1960000000e+00   1.8346640000e-05   5.4506938727e-01   5.8955470505e-03   5.8955470505e-03
  -7.7812202353e-01  -7.7889159817e-01   1.1960000000e+00   1.8346640000e-05   7.4079142064e-01   9.4167450374e-04   9.4167450374e-04
  -7.7663029514e-01  -7.7735244889e-01   1.1960000000e+00   1.8346640000e-05   6.6138400788e-01   3.0138359320e-03   3.0138359320e-03
  -7.7542774177e-01  -7.7590814138e-01   1.1960000000e+00   1.8346640000e-05   5.2550500003e-01   2.6424574338e-03   2.6424574338e-03
  -7.7450629325e-01  -7.7494734216e-01   1.1960000000e+00   1.8346640000e-05   4.5368571497e-01   2.2203504911e-03   2.2203504911e-03
  -7.7367706972e-01  -7.7406524434e-01   1.1960000000e+00   1.8346640000e-05   4.4357736205e-01   2.1215598089e-03   2.1215598089e-03
  -7.7277000059e-01  -7.7328889510e-01   1.1960000000e+00   1.8346640000e-05   4.8734349171e-01   2.4142348090e-03   2.4142348090e-03
  -7.7152346713e-01  -7.7225110607e-01   1.1960000000e+00   1.8346640000e-05   6.1585118068e-01   3.5405849095e-03   3.5405849095e-03
  -7.6973091250e-01  -7.7079582818e-01   1.1960000000e+00   1.8346640000e-05   7.8081993191e-01   5.6196942660e-03   5.6196942660e-03
  -7.6766370222e-01  -7.6866599681e-01   1.1960000000e+00   1.8346640000e-05   8.0322869751e-01  -1.1452042130e-03  -1.1452042130e-03
  -7.6465203654e-01  -7.6666140762e-01   1.1960000000e+00   1.8346640000e-05   8.3931413120e-01  -1.5939722459e-03  -1.5939722459e-03
  -7.5908467347e-01  -7.6264266547e-01   1.1960000000e+00   1.8346640000e-05   9.2511792746e-01  -5.5298202861e-03  -5.5298202861e-03
  -7.5199058142e-01  -7.5552668148e-01   1.1960000000e+00   1.8346640000e-05   8.9955852261e-01   1.1705559613e-02   1.1705559613e-02
  -7.4613542036e-01  -7.4845448135e-01   1.1960000000e+00   1.8346640000e-05   9.0455625990e-01  -1.3322116896e-02  -1.3322116896e-02
  -7.4267604638e-01  -7.4381635937e-01   1.1960000000e+00   1.8346640000e-05   8.0647238405e-01  -5.3467687696e-04  -5.3467687696e-04
  -7.4059734216e-01  -7.4153573340e-01   1.1960000000e+00   1.8346640000e-05   7.8814184268e-01   1.3822159914e-03   1.3822159914e-03
  -7.3917261220e-01  -7.3965895092e-01   1.1960000000e+00   1.8346640000e-05   7.4732893787e-01   3.0492888482e-03   3.0492888482e-03
  -7.3818573705e-01  -7.3868627349e-01   1.1960000000e+00   1.8346640000e-05   7.0063892668e-01   3.5620353883e-03   3.5620353883e-03
  -7.3745018299e-01  -7.3768520061e-01   1.1960000000e+00   1.8346640000e-05   6.7587404092e-01   3.1994456837e-03   3.1994456837e-03
  -7.3694968424e-01  -7.3721516536e-01   1.1960000000e+00   1.8346640000e-05   6.7017181316e-01   2.8225120743e-03   2.8225120743e-03
  -7.3650046837e-01  -7.3668420312e-01   1.1960000000e+00   1.8346640000e-05   6.7707997450e-01   2.4774323468e-03   2.4774323468e-03
  -7.3582225215e-01  -7.3631673362e-01   1.1960000000e+00   1.8346640000e-05   6.9423440854e-01   2.1121394025e-03   2.1121394025e-03
  -7.3482222621e-01  -7.3532777069e-01   1.1960000000e+00   1.8346640000e-05   6.9373498971e-01   3.2566914593e-03   3.2566914593e-03
  -7.3405432182e-01  -7.3431668173e-01   1.1960000000e+00   1.8346640000e-05   6.3118036419e-01   6.1110435771e-03   6.1110435771e-03
  -7.3350839129e-01  -7.3379196191e-01   1.1960000000e+00   1.8346640000e-05   5.6923584807e-01   7.7525340219e-03   7.7525340219e-03
  -7.3307508269e-01  -7.3322482067e-01   1.1960000000e+00   1.8346640000e-05   5.1209189134e-01   8.2749630508e-03   8.2749630508e-03
  -7.3281866716e-01  -7.3292534471e-01   1.1960000000e+00   1.8346640000e-05   4.7778580798e-01   8.3301635212e-03   8.3301635212e-03
  -7.3261558699e-01  -7.3271198961e-01   1.1960000000e+00   1.8346640000e-05   4.5093561451e-01   8.2405059612e-03   8.2405059612e-03
  -7.3245328465e-01  -7.3251918437e-01   1.1960000000e+00   1.8346640000e-05   4.3000072106e-01   8.0818057652e-03   8.0818057652e-03
  -7.3226349093e-01  -7.3238738492e-01   1.1960000000e+00   1.8346640000e-05   4.0609102845e-01   7.8339134962e-03   7.8339134962e-03
  -7.3183564367e-01  -7.3213959693e-01   1.1960000000e+00   1.8346640000e-05   3.5524732688e-01   7.0493125142e-03   7.0493125142e-03
  -7.3032442714e-01  -7.3153169042e-01   1.1960000000e+00   1.8346640000e-05   2.1001359350e-01   3.0884573508e-03   3.0884573508e-03
  -7.2561246806e-01  -7.2911716387e-01   1.1960000000e+00   1.8346640000e-05   1.7304723417e-01   6.7163362209e-04   6.7163362209e-04
  -7.2033165746e-01  -7.2210777224e-01   1.1960000000e+00   1.8346640000e-05   1.7954398022e-01   6.2825118850e-04   6.2825118850e-04
  -7.1652393086e-01  -7.1855554269e-01   1.1960000000e+00   1.8346640000e-05   1.8054951123e-01   6.8992287498e-04   6.8992287498e-04
  -7.1366248681e-01  -7.1449231902e-01   1.1960000000e+00   1.8346640000e-05   2.1149610377e-01   1.7456237155e-03   1.7456237155e-03
  -7.1252805863e-01  -7.1283265459e-01   1.1960000000e+00   1.8346640000e-05   2.8600387069e-01   3.6012035449e-03   3.6012035449e-03
  -7.1191993600e-01  -7.1222346268e-01   1.1960000000e+00   1.8346640000e-05   3.3718079470e-01   4.7049813530e-03   4.7049813530e-03
  -7.1138399510e-01  -7.1161640932e-01   1.1960000000e+00   1.8346640000e-05   3.8357364231e-01   5.5596130981e-03   5.5596130981e-03
  -7.1053439087e-01  -7.1115158089e-01   1.1960000000e+00   1.8346640000e-05   4.4129798744e-01   6.4972515145e-03   6.4972515145e-03
  -7.0969576361e-01  -7.0991720086e-01   1.1960000000e+00   1.8346640000e-05   3.8557917783e-01   5.5439481959e-03   5.5439481959e-03
  -7.0928860503e-01  -7.0947432636e-01   1.1960000000e+00   1.8346640000e-05   3.5237368584e-01   4.9226502268e-03   4.9226502268e-03
  -7.0895470286e-01  -7.0910288371e-01   1.1960000000e+00   1.8346640000e-05   3.2601633831e-01   4.3853045572e-03   4.3853045572e-03
  -7.0846674882e-01  -7.0880652201e-01   1.1960000000e+00   1.8346640000e-05   2.9313988185e-01   3.6488848370e-03   3.6488848370e-03
  -7.0777572496e-01  -7.0812697563e-01   1.1960000000e+00   1.8346640000e-05   2.8469472229e-01   3.1231784687e-03   3.1231784687e-03
  -7.0712511650e-01  -7.0742447430e-01   1.1960000000e+00   1.8346640000e-05   3.2820307250e-01   3.2749427459e-03   3.2749427459e-03
  -7.0671781145e-01  -7.0682575870e-01   1.1960000000e+00   1.8346640000e-05   3.8330364161e-01   3.5423974514e-03   3.5423974514e-03
  -7.0646132089e-01  -7.0660986420e-01   1.1960000000e+00   1.8346640000e-05   4.2415023125e-01   3.7087232505e-03   3.7087232505e-03
  -7.0613980977e-01  -7.0631277758e-01   1.1960000000e+00   1.8346640000e-05   4.8518586633e-01   3.8668961675e-03   3.8668961675e-03
  -7.0571564783e-01  -7.0596684195e-01   1.1960000000e+00   1.8346640000e-05   5.7146610998e-01   3.9349987536e-03   3.9349987536e-03
  -7.0522833672e-01  -7.0546445371e-01   1.1960000000e+00   1.8346640000e-05   6.0796697095e-01   3.7183967737e-03   3.7183967737e-03
  -7.0451017723e-01  -7.0499221972e-01   1.1960000000e+00   1.8346640000e-05   6.6266041039e-01   2.4201254746e-03   2.4201254746e-03
  -7.0307971916e-01  -7.0402813474e-01   1.1960000000e+00   1.8346640000e-05   6.1027570599e-01   3.1405330529e-03   3.1405330529e-03
  -7.0119574259e-01  -7.0213130359e-01   1.1960000000e+00   1.8346640000e-05   5.6505188301e-01   3.7215795320e-03   3.7215795320e-03
  -6.9986015806e-01  -7.0026018158e-01   1.1960000000e+00   1.8346640000e-05   3.2310555320e-01   2.3241618769e-03   2.3241618769e-03
  -6.9883373002e-01  -6.9946013453e-01   1.1960000000e+00   1.8346640000e-05   2.0380221303e-01   9.9380048968e-04   9.9380048968e-04
  -6.9752811926e-01  -6.9820732551e-01   1.1960000000e+00   1.8346640000e-05   1.7980084744e-01   6.4778983215e-04   6.4778983215e-04
  -6.9547633454e-01  -6.9684891302e-01   1.1960000000e+00   1.8346640000e-05   1.7582053856e-01   5.9262898520e-04   5.9262898520e-04
  -6.9273322318e-01  -6.9410375607e-01   1.1960000000e+00   1.8346640000e-05   1.7519186545e-01   5.8957568243e-04   5.8957568243e-04
  -6.9069580516e-01  -6.9136269029e-01   1.1960000000e+00   1.8346640000e-05   1.8534791844e-01   7.2532727275e-04   7.2532727275e-04
  -6.8943678165e-01  -6.9002892003e-01   1.1960000000e+00   1.8346640000e-05   2.3829886472e-01   1.3690403303e-03   1.3690403303e-03
  -6.8839465058e-01  -6.8884464328e-01   1.1960000000e+00   1.8346640000e-05   4.2639854522e-01   3.0661735091e-03   3.0661735091e-03
  -6.8724699906e-01  -6.8794465788e-01   1.1960000000e+00   1.8346640000e-05   5.4890284104e-01   4.2098592554e-03   4.2098592554e-03
  -6.8585561826e-01  -6.8654934025e-01   1.1960000000e+00   1.8346640000e-05   5.9897089274e-01   3.2757221446e-03   3.2757221446e-03
  -6.8446826951e-01  -6.8516189627e-01   1.1960000000e+00   1.8346640000e-05   5.9421105320e-01   3.4369912679e-03   3.4369912679e-03
  -6.8308091143e-01  -6.8377464275e-01   1.1960000000e+00   1.8346640000e-05   5.6118387446e-01   4.1125302984e-03   4.1125302984e-03
  -6.8191168097e-01  -6.8238718010e-01   1.1960000000e+00   1.8346640000e-05   4.8330388132e-01   3.4922926823e-03   3.4922926823e-03
  -6.8064486769e-01  -6.8143618185e-01   1.1960000000e+00   1.8346640000e-05   2.3156145591e-01   1.3348886444e-03   1.3348886444e-03
  -6.7897971603e-01  -6.7985355352e-01   1.1960000000e+00   1.8346640000e-05   1.8126367679e-01   6.6414994997e-04   6.6414994997e-04
  -6.7633020511e-01  -6.7810587853e-01   1.1960000000e+00   1.8346640000e-05   1.7320046082e-01   5.7162313141e-04   5.7162313141e-04
  -6.7100123211e-01  -6.7455453168e-01   1.1960000000e+00   1.8346640000e-05   1.6886339978e-01   5.3722707298e-04   5.3722707298e-04
  -6.6455541750e-01  -6.6744793253e-01   1.1960000000e+00   1.8346640000e-05   1.6801967378e-01   5.3518193252e-04   5.3518193252e-04
  -6.5854297403e-01  -6.6166290248e-01   1.1960000000e+00   1.8346640000e-05   1.6409088279e-01   6.8151668086e-04   6.8151668086e-04
  -6.5468076049e-01  -6.5542304559e-01   1.1960000000e+00   1.8346640000e-05   2.2265470152e-01   4.3151881883e-03   4.3151881883e-03
  -6.5369218646e-01  -6.5393847539e-01   1.1960000000e+00   1.8346640000e-05   3.2554382743e-01   7.5157426472e-03   7.5157426472e-03
  -6.5333200843e-01  -6.5344589753e-01   1.1960000000e+00   1.8346640000e-05   3.7215866474e-01   8.5788537223e-03   8.5788537223e-03
  -6.5307688935e-01  -6.5321811933e-01   1.1960000000e+00   1.8346640000e-05   4.0773486001e-01   9.2334521172e-03   9.2334521172e-03
  -6.5277082746e-01  -6.5293565936e-01   1.1960000000e+00   1.8346640000e-05   4.5355711810e-01   9.7955003315e-03   9.7955003315e-03
  -6.5241582849e-01  -6.5260599555e-01   1.1960000000e+00   1.8346640000e-05   5.0935795759e-01   1.0015639786e-02   1.0015639786e-02
  -6.5180137772e-01  -6.5222566144e-01   1.1960000000e+00   1.8346640000e-05   6.0622717267e-01   9.2729055537e-03   9.2729055537e-03
  -6.5099044851e-01  -6.5137709401e-01   1.1960000000e+00   1.8346640000e-05   7.0466193049e-01   4.3671313252e-03   4.3671313252e-03
  -6.4986457379e-01  -6.5060380302e-01   1.1960000000e+00   1.8346640000e-05   7.7466190919e-01  -2.3722247031e-03  -2.3722247031e-03
  -6.4874094815e-01  -6.4912534456e-01   1.1960000000e+00   1.8346640000e-05   7.1550530062e-01   3.2073081683e-03   3.2073081683e-03
  -6.4795121664e-01  -6.4835655173e-01   1.1960000000e+00   1.8346640000e-05   6.2634988559e-01   8.0439988865e-03   8.0439988865e-03
  -6.4729568584e-01  -6.4754588155e-01   1.1960000000e+00   1.8346640000e-05   5.2529508753e-01   9.5969330125e-03   9.5969330125e-03
  -6.4688361017e-01  -6.4704549012e-01   1.1960000000e+00   1.8346640000e-05   4.6045086983e-01   9.5704794211e-03   9.5704794211e-03
  -6.4650544851e-01  -6.4672173022e-01   1.1960000000e+00   1.8346640000e-05   4.0337477627e-01   9.1032118576e-03   9.1032118576e-03
  -6.4609662852e-01  -6.4628916681e-01   1.1960000000e+00   1.8346640000e-05   3.4898856993e-01   8.2195262552e-03   8.2195262552e-03
  -6.4542039233e-01  -6.4590409022e-01   1.1960000000e+00   1.8346640000e-05   2.7461916900e-01   6.6408715146e-03   6.6408715146e-03
